lr-Adam/pg1,lr-Adam/pg2,step,train/loss,epoch,val/loss,val/auroc,val/av_prec,val/acc,val/w_acc,val/av_f1,train/auroc,train/av_prec,train/acc,train/w_acc,train/av_f1,test/loss,test/auroc,test/av_prec,test/acc,test/w_acc,test/av_f1,test/bacc
0.0001442986898059786,0.0001442986898059786,0,,,,,,,,,,,,,,,,,,,,
,,49,1.1259737014770508,0,,,,,,,,,,,,,,,,,,
,,99,0.42069166898727417,0,,,,,,,,,,,,,,,,,,
,,149,1.4562419652938843,0,,,,,,,,,,,,,,,,,,
,,199,0.47971054911613464,0,,,,,,,,,,,,,,,,,,
,,249,0.942886233329773,0,,,,,,,,,,,,,,,,,,
,,299,0.42249470949172974,0,,,,,,,,,,,,,,,,,,
,,312,,0,0.36951005458831787,0.8731294870376587,nan,0.921999990940094,0.47730785608291626,0.46016329526901245,,,,,,,,,,,,
,,312,,0,,,,,,,0.7882010340690613,0.43384042382240295,0.8284000158309937,0.4450293481349945,0.4354678690433502,,,,,,,
0.0001442986898059786,0.0001442986898059786,313,,,,,,,,,,,,,,,,,,,,
,,349,0.19050820171833038,1,,,,,,,,,,,,,,,,,,
,,399,0.5977360606193542,1,,,,,,,,,,,,,,,,,,
,,449,0.29180625081062317,1,,,,,,,,,,,,,,,,,,
,,499,3.6581649780273438,1,,,,,,,,,,,,,,,,,,
,,549,0.7638822793960571,1,,,,,,,,,,,,,,,,,,
,,599,0.3929586708545685,1,,,,,,,,,,,,,,,,,,
,,625,,1,0.30946144461631775,0.8841976523399353,nan,0.9419999718666077,0.5250123739242554,0.5373056530952454,,,,,,,,,,,,
,,625,,1,,,,,,,0.8287546038627625,nan,0.8447999954223633,0.4902358949184418,0.47030115127563477,,,,,,,
0.0001442986898059786,0.0001442986898059786,626,,,,,,,,,,,,,,,,,,,,
,,649,1.7993788719177246,2,,,,,,,,,,,,,,,,,,
,,699,0.4447026252746582,2,,,,,,,,,,,,,,,,,,
,,749,0.44081902503967285,2,,,,,,,,,,,,,,,,,,
,,799,0.23414453864097595,2,,,,,,,,,,,,,,,,,,
,,849,0.28199413418769836,2,,,,,,,,,,,,,,,,,,
,,899,0.8413477540016174,2,,,,,,,,,,,,,,,,,,
,,938,,2,0.3099507987499237,0.9038206338882446,nan,0.9240000247955322,0.5331906080245972,0.5307420492172241,,,,,,,,,,,,
,,938,,2,,,,,,,0.8572279214859009,0.4834972321987152,0.8551999926567078,0.5139779448509216,0.48542484641075134,,,,,,,
0.0001442986898059786,0.0001442986898059786,939,,,,,,,,,,,,,,,,,,,,
,,949,1.5375101566314697,3,,,,,,,,,,,,,,,,,,
,,999,0.45751240849494934,3,,,,,,,,,,,,,,,,,,
,,1049,2.512455701828003,3,,,,,,,,,,,,,,,,,,
,,1099,2.133338212966919,3,,,,,,,,,,,,,,,,,,
,,1149,0.9362848997116089,3,,,,,,,,,,,,,,,,,,
,,1199,1.1096984148025513,3,,,,,,,,,,,,,,,,,,
,,1249,0.42232710123062134,3,,,,,,,,,,,,,,,,,,
,,1251,,3,0.35325419902801514,0.9249898791313171,nan,0.9120000004768372,0.5381096601486206,0.5279166102409363,,,,,,,,,,,,
,,1251,,3,,,,,,,0.8487951159477234,nan,0.8619999885559082,0.5192294120788574,0.4957682192325592,,,,,,,
1.442986898059786e-05,1.442986898059786e-05,1252,,,,,,,,,,,,,,,,,,,,
,,1299,0.4979262351989746,4,,,,,,,,,,,,,,,,,,
,,1349,0.6435965299606323,4,,,,,,,,,,,,,,,,,,
,,1399,1.1449851989746094,4,,,,,,,,,,,,,,,,,,
,,1449,0.32887616753578186,4,,,,,,,,,,,,,,,,,,
,,1499,0.3409818112850189,4,,,,,,,,,,,,,,,,,,
,,1549,1.207001805305481,4,,,,,,,,,,,,,,,,,,
,,1564,,4,0.31053125858306885,0.9194677472114563,nan,0.9139999747276306,0.5760896801948547,0.5610756278038025,,,,,,,,,,,,
,,1564,,4,,,,,,,0.8661684989929199,0.5020071864128113,0.8528000116348267,0.5387047529220581,0.5012587904930115,,,,,,,
1.442986898059786e-05,1.442986898059786e-05,1565,,,,,,,,,,,,,,,,,,,,
,,1599,1.7092652320861816,5,,,,,,,,,,,,,,,,,,
,,1649,0.256492555141449,5,,,,,,,,,,,,,,,,,,
,,1699,1.395267128944397,5,,,,,,,,,,,,,,,,,,
,,1749,0.3053939640522003,5,,,,,,,,,,,,,,,,,,
,,1799,0.4303593933582306,5,,,,,,,,,,,,,,,,,,
,,1849,0.3611507713794708,5,,,,,,,,,,,,,,,,,,
,,1877,,5,0.28341051936149597,0.9095110893249512,nan,0.9279999732971191,0.5839993357658386,0.5715765357017517,,,,,,,,,,,,
,,1877,,5,,,,,,,0.8926177024841309,0.5346759557723999,0.876800000667572,0.5660337209701538,0.5323199033737183,,,,,,,
1.442986898059786e-05,1.442986898059786e-05,1878,,,,,,,,,,,,,,,,,,,,
,,1899,0.27754759788513184,6,,,,,,,,,,,,,,,,,,
,,1949,0.3592616617679596,6,,,,,,,,,,,,,,,,,,
,,1999,0.5113216638565063,6,,,,,,,,,,,,,,,,,,
,,2049,2.1479501724243164,6,,,,,,,,,,,,,,,,,,
,,2099,1.3178826570510864,6,,,,,,,,,,,,,,,,,,
,,2149,0.6527761220932007,6,,,,,,,,,,,,,,,,,,
,,2190,,6,0.3238077759742737,0.9109113812446594,nan,0.9380000233650208,0.6179155111312866,0.5994516015052795,,,,,,,,,,,,
,,2190,,6,,,,,,,0.8970516324043274,0.6462005376815796,0.8848000168800354,0.585677981376648,0.5653031468391418,,,,,,,
1.442986898059786e-05,1.442986898059786e-05,2191,,,,,,,,,,,,,,,,,,,,
,,2199,1.2110381126403809,7,,,,,,,,,,,,,,,,,,
,,2249,0.25246700644493103,7,,,,,,,,,,,,,,,,,,
,,2299,0.4054202735424042,7,,,,,,,,,,,,,,,,,,
,,2349,0.7851870059967041,7,,,,,,,,,,,,,,,,,,
,,2399,0.2479574829339981,7,,,,,,,,,,,,,,,,,,
,,2449,0.31140244007110596,7,,,,,,,,,,,,,,,,,,
,,2499,0.4581446945667267,7,,,,,,,,,,,,,,,,,,
,,2503,,7,0.2980795204639435,0.9038904309272766,nan,0.9419999718666077,0.5828802585601807,0.5788189172744751,,,,,,,,,,,,
,,2503,,7,,,,,,,0.9086254239082336,0.6042734384536743,0.8763999938964844,0.5905125737190247,0.5574005842208862,,,,,,,
1.4429868980597862e-06,1.4429868980597862e-06,2504,,,,,,,,,,,,,,,,,,,,
,,2549,0.31260475516319275,8,,,,,,,,,,,,,,,,,,
,,2599,0.4175013601779938,8,,,,,,,,,,,,,,,,,,
,,2649,1.1431612968444824,8,,,,,,,,,,,,,,,,,,
,,2699,0.22288961708545685,8,,,,,,,,,,,,,,,,,,
,,2749,0.3257982134819031,8,,,,,,,,,,,,,,,,,,
,,2799,1.143211841583252,8,,,,,,,,,,,,,,,,,,
,,2816,,8,0.30207130312919617,0.9107534289360046,nan,0.9380000233650208,0.5621953010559082,0.5598548650741577,,,,,,,,,,,,
,,2816,,8,,,,,,,0.9094473123550415,0.6691955924034119,0.8916000127792358,0.6182273626327515,0.6050724983215332,,,,,,,
1.4429868980597862e-06,1.4429868980597862e-06,2817,,,,,,,,,,,,,,,,,,,,
,,2849,0.3465709984302521,9,,,,,,,,,,,,,,,,,,
,,2899,1.3081635236740112,9,,,,,,,,,,,,,,,,,,
,,2949,0.787605881690979,9,,,,,,,,,,,,,,,,,,
,,2999,0.40544167160987854,9,,,,,,,,,,,,,,,,,,
,,3049,0.962182343006134,9,,,,,,,,,,,,,,,,,,
,,3099,0.367637038230896,9,,,,,,,,,,,,,,,,,,
,,3129,,9,0.28614187240600586,0.9108685851097107,nan,0.9440000057220459,0.5835651755332947,0.5838438272476196,,,,,,,,,,,,
,,3129,,9,,,,,,,0.8959113359451294,nan,0.8888000249862671,0.5803191661834717,0.5492719411849976,,,,,,,
1.4429868980597862e-06,1.4429868980597862e-06,3130,,,,,,,,,,,,,,,,,,,,
,,3149,1.4863545894622803,10,,,,,,,,,,,,,,,,,,
,,3199,1.212585687637329,10,,,,,,,,,,,,,,,,,,
,,3249,0.5280508995056152,10,,,,,,,,,,,,,,,,,,
,,3299,0.9105027318000793,10,,,,,,,,,,,,,,,,,,
,,3349,0.24694132804870605,10,,,,,,,,,,,,,,,,,,
,,3399,0.38208848237991333,10,,,,,,,,,,,,,,,,,,
,,3442,,10,0.29353874921798706,0.9124407172203064,nan,0.9459999799728394,0.622880220413208,0.6121178865432739,,,,,,,,,,,,
,,3442,,10,,,,,,,0.9111564755439758,0.5461863875389099,0.8808000087738037,0.5707441568374634,0.5354788899421692,,,,,,,
1.4429868980597862e-06,1.4429868980597862e-06,3443,,,,,,,,,,,,,,,,,,,,
,,3449,0.6557371616363525,11,,,,,,,,,,,,,,,,,,
,,3499,1.0284746885299683,11,,,,,,,,,,,,,,,,,,
,,3549,0.4467932879924774,11,,,,,,,,,,,,,,,,,,
,,3599,0.2444225698709488,11,,,,,,,,,,,,,,,,,,
,,3649,0.45309364795684814,11,,,,,,,,,,,,,,,,,,
,,3699,0.3025289475917816,11,,,,,,,,,,,,,,,,,,
,,3749,0.6536591649055481,11,,,,,,,,,,,,,,,,,,
,,3755,,11,0.28694915771484375,0.907996654510498,nan,0.9459999799728394,0.6224352121353149,0.6118687391281128,,,,,,,,,,,,
,,3755,,11,,,,,,,0.9161949157714844,0.5690497756004333,0.8899999856948853,0.6127353310585022,0.5689684152603149,,,,,,,
1.4429868980597863e-07,1.4429868980597863e-07,3756,,,,,,,,,,,,,,,,,,,,
,,3799,0.31040000915527344,12,,,,,,,,,,,,,,,,,,
,,3849,0.3288595974445343,12,,,,,,,,,,,,,,,,,,
,,3899,0.22912967205047607,12,,,,,,,,,,,,,,,,,,
,,3949,0.17825041711330414,12,,,,,,,,,,,,,,,,,,
,,3999,0.5212008357048035,12,,,,,,,,,,,,,,,,,,
,,4049,0.21884000301361084,12,,,,,,,,,,,,,,,,,,
,,4068,,12,0.29019269347190857,0.9107388854026794,nan,0.9440000057220459,0.6217502951622009,0.6063273549079895,,,,,,,,,,,,
,,4068,,12,,,,,,,0.8969370722770691,0.6111790537834167,0.8903999924659729,0.6049474477767944,0.5750699043273926,,,,,,,
1.4429868980597863e-07,1.4429868980597863e-07,4069,,,,,,,,,,,,,,,,,,,,
,,4099,0.4822755753993988,13,,,,,,,,,,,,,,,,,,
,,4149,2.8635969161987305,13,,,,,,,,,,,,,,,,,,
,,4199,0.2667771279811859,13,,,,,,,,,,,,,,,,,,
,,4249,0.27411970496177673,13,,,,,,,,,,,,,,,,,,
,,4299,0.09878278523683548,13,,,,,,,,,,,,,,,,,,
,,4349,0.40026789903640747,13,,,,,,,,,,,,,,,,,,
,,4381,,13,0.2992972433567047,0.9110477566719055,nan,0.9459999799728394,0.6224352121353149,0.6118687391281128,,,,,,,,,,,,
,,4381,,13,,,,,,,0.9040275812149048,0.6064600944519043,0.8876000046730042,0.6039518117904663,0.5860770344734192,,,,,,,
1.4429868980597863e-07,1.4429868980597863e-07,4382,,,,,,,,,,,,,,,,,,,,
,,4399,1.2916010618209839,14,,,,,,,,,,,,,,,,,,
,,4449,0.24735130369663239,14,,,,,,,,,,,,,,,,,,
,,4499,0.34892886877059937,14,,,,,,,,,,,,,,,,,,
,,4549,0.19235001504421234,14,,,,,,,,,,,,,,,,,,
,,4599,0.1648503690958023,14,,,,,,,,,,,,,,,,,,
,,4649,0.4156371057033539,14,,,,,,,,,,,,,,,,,,
,,4694,,14,0.2921155095100403,0.9137042164802551,nan,0.9480000138282776,0.623565137386322,0.6181787252426147,,,,,,,,,,,,
,,4694,,14,,,,,,,0.897102952003479,0.5987287759780884,0.8823999762535095,0.5967988967895508,0.5734472870826721,,,,,,,
1.4429868980597863e-07,1.4429868980597863e-07,4695,,,,,,,,,,,,,,,,,,,,
,,4699,0.2888624668121338,15,,,,,,,,,,,,,,,,,,
,,4749,0.3847294747829437,15,,,,,,,,,,,,,,,,,,
,,4799,0.26122283935546875,15,,,,,,,,,,,,,,,,,,
,,4849,0.23690253496170044,15,,,,,,,,,,,,,,,,,,
,,4899,0.2525847554206848,15,,,,,,,,,,,,,,,,,,
,,4949,0.3997657299041748,15,,,,,,,,,,,,,,,,,,
,,4999,0.5084967613220215,15,,,,,,,,,,,,,,,,,,
,,5007,,15,0.278749942779541,0.909519374370575,nan,0.949999988079071,0.6246951818466187,0.6215915679931641,,,,,,,,,,,,
,,5007,,15,,,,,,,0.9123802185058594,0.6137586832046509,0.8971999883651733,0.6152896285057068,0.598392128944397,,,,,,,
1.4429868980597864e-08,1.4429868980597864e-08,5008,,,,,,,,,,,,,,,,,,,,
,,5049,0.3479407727718353,16,,,,,,,,,,,,,,,,,,
,,5099,0.8279754519462585,16,,,,,,,,,,,,,,,,,,
,,5149,0.13975267112255096,16,,,,,,,,,,,,,,,,,,
,,5199,0.306446373462677,16,,,,,,,,,,,,,,,,,,
,,5249,0.7552151083946228,16,,,,,,,,,,,,,,,,,,
,,5299,0.13143958151340485,16,,,,,,,,,,,,,,,,,,
,,5320,,16,0.2929372191429138,0.912611186504364,nan,0.9459999799728394,0.6224352121353149,0.6118687391281128,,,,,,,,,,,,
,,5320,,16,,,,,,,0.9005870223045349,0.5529228448867798,0.8863999843597412,0.5818086266517639,0.5511667132377625,,,,,,,
,,5321,,17,,,,,,,,,,,,0.27939602732658386,0.9111297726631165,nan,0.9330000281333923,0.5810093283653259,0.5635824203491211,0.5810092687606812
