lr-Adam/pg1,lr-Adam/pg2,step,train/loss,epoch,val/loss,val/auroc,val/av_prec,val/acc,val/w_acc,val/av_f1,train/auroc,train/av_prec,train/acc,train/w_acc,train/av_f1,test/loss,test/auroc,test/av_prec,test/acc,test/w_acc,test/av_f1,test/bacc
0.0001442986898059786,0.0001442986898059786,0,,,,,,,,,,,,,,,,,,,,
,,49,0.497283011674881,0,,,,,,,,,,,,,,,,,,
,,99,0.5742799043655396,0,,,,,,,,,,,,,,,,,,
,,149,0.36095908284187317,0,,,,,,,,,,,,,,,,,,
,,199,0.735598623752594,0,,,,,,,,,,,,,,,,,,
,,249,0.474148690700531,0,,,,,,,,,,,,,,,,,,
,,299,0.37767261266708374,0,,,,,,,,,,,,,,,,,,
,,312,,0,0.37354710698127747,0.8481987118721008,nan,0.9160000085830688,0.45831766724586487,0.47205084562301636,,,,,,,,,,,,
,,312,,0,,,,,,,0.8148166537284851,nan,0.8496000170707703,0.4352912902832031,0.4298720359802246,,,,,,,
0.0001442986898059786,0.0001442986898059786,313,,,,,,,,,,,,,,,,,,,,
,,349,0.21915766596794128,1,,,,,,,,,,,,,,,,,,
,,399,0.3638249635696411,1,,,,,,,,,,,,,,,,,,
,,449,1.8580268621444702,1,,,,,,,,,,,,,,,,,,
,,499,0.33077821135520935,1,,,,,,,,,,,,,,,,,,
,,549,0.318951278924942,1,,,,,,,,,,,,,,,,,,
,,599,0.7479627728462219,1,,,,,,,,,,,,,,,,,,
,,625,,1,0.48583003878593445,0.8554263114929199,nan,0.8920000195503235,0.5354712605476379,0.511475682258606,,,,,,,,,,,,
,,625,,1,,,,,,,0.8107417225837708,nan,0.8944000005722046,0.4930114150047302,0.48428136110305786,,,,,,,
0.0001442986898059786,0.0001442986898059786,626,,,,,,,,,,,,,,,,,,,,
,,649,0.29133492708206177,2,,,,,,,,,,,,,,,,,,
,,699,0.19687728583812714,2,,,,,,,,,,,,,,,,,,
,,749,0.5524739623069763,2,,,,,,,,,,,,,,,,,,
,,799,0.9136207699775696,2,,,,,,,,,,,,,,,,,,
,,849,0.3833695352077484,2,,,,,,,,,,,,,,,,,,
,,899,2.3865034580230713,2,,,,,,,,,,,,,,,,,,
,,938,,2,0.3192923367023468,0.9118797183036804,nan,0.9160000085830688,0.5297154784202576,0.5317589044570923,,,,,,,,,,,,
,,938,,2,,,,,,,0.8494402170181274,nan,0.8988000154495239,0.5267449021339417,0.5067574977874756,,,,,,,
0.0001442986898059786,0.0001442986898059786,939,,,,,,,,,,,,,,,,,,,,
,,949,0.4576631486415863,3,,,,,,,,,,,,,,,,,,
,,999,0.5077227354049683,3,,,,,,,,,,,,,,,,,,
,,1049,0.41446518898010254,3,,,,,,,,,,,,,,,,,,
,,1099,0.7317007780075073,3,,,,,,,,,,,,,,,,,,
,,1149,0.2545962929725647,3,,,,,,,,,,,,,,,,,,
,,1199,3.222367286682129,3,,,,,,,,,,,,,,,,,,
,,1249,0.230357363820076,3,,,,,,,,,,,,,,,,,,
,,1251,,3,0.3455868065357208,0.8451042175292969,nan,0.906000018119812,0.4702029824256897,0.4700608253479004,,,,,,,,,,,,
,,1251,,3,,,,,,,0.8819507956504822,nan,0.9039999842643738,0.5394561290740967,0.520401120185852,,,,,,,
1.442986898059786e-05,1.442986898059786e-05,1252,,,,,,,,,,,,,,,,,,,,
,,1299,0.20697365701198578,4,,,,,,,,,,,,,,,,,,
,,1349,0.38651981949806213,4,,,,,,,,,,,,,,,,,,
,,1399,1.600948691368103,4,,,,,,,,,,,,,,,,,,
,,1449,0.19505372643470764,4,,,,,,,,,,,,,,,,,,
,,1499,0.15110459923744202,4,,,,,,,,,,,,,,,,,,
,,1549,0.1186458170413971,4,,,,,,,,,,,,,,,,,,
,,1564,,4,0.320208340883255,0.8643640875816345,nan,0.9120000004768372,0.5099979043006897,0.5131040215492249,,,,,,,,,,,,
,,1564,,4,,,,,,,0.8939008712768555,nan,0.9192000031471252,0.5614705681800842,0.5527307391166687,,,,,,,
1.442986898059786e-05,1.442986898059786e-05,1565,,,,,,,,,,,,,,,,,,,,
,,1599,0.41306596994400024,5,,,,,,,,,,,,,,,,,,
,,1649,3.08603572845459,5,,,,,,,,,,,,,,,,,,
,,1699,0.270626038312912,5,,,,,,,,,,,,,,,,,,
,,1749,0.5416824817657471,5,,,,,,,,,,,,,,,,,,
,,1799,0.25269630551338196,5,,,,,,,,,,,,,,,,,,
,,1849,0.2746823728084564,5,,,,,,,,,,,,,,,,,,
,,1877,,5,0.2898350954055786,0.9114517569541931,nan,0.9259999990463257,0.5170174837112427,0.5241833925247192,,,,,,,,,,,,
,,1877,,5,,,,,,,0.9162378311157227,nan,0.9175999760627747,0.6071226596832275,0.5715585947036743,,,,,,,
1.442986898059786e-05,1.442986898059786e-05,1878,,,,,,,,,,,,,,,,,,,,
,,1899,4.149960517883301,6,,,,,,,,,,,,,,,,,,
,,1949,0.29417258501052856,6,,,,,,,,,,,,,,,,,,
,,1999,0.17919474840164185,6,,,,,,,,,,,,,,,,,,
,,2049,0.19851689040660858,6,,,,,,,,,,,,,,,,,,
,,2099,0.3388364911079407,6,,,,,,,,,,,,,,,,,,
,,2149,0.26414182782173157,6,,,,,,,,,,,,,,,,,,
,,2190,,6,0.30107131600379944,0.874135434627533,nan,0.9300000071525574,0.5192773342132568,0.528123676776886,,,,,,,,,,,,
,,2190,,6,,,,,,,0.9105386734008789,nan,0.91839998960495,0.5838268995285034,0.5650224089622498,,,,,,,
1.442986898059786e-05,1.442986898059786e-05,2191,,,,,,,,,,,,,,,,,,,,
,,2199,0.21878525614738464,7,,,,,,,,,,,,,,,,,,
,,2249,0.1582465022802353,7,,,,,,,,,,,,,,,,,,
,,2299,0.17651714384555817,7,,,,,,,,,,,,,,,,,,
,,2349,0.08696732670068741,7,,,,,,,,,,,,,,,,,,
,,2399,0.4680898189544678,7,,,,,,,,,,,,,,,,,,
,,2449,0.5132817625999451,7,,,,,,,,,,,,,,,,,,
,,2499,0.27588585019111633,7,,,,,,,,,,,,,,,,,,
,,2503,,7,0.298849880695343,0.902472198009491,nan,0.9279999732971191,0.5001673698425293,0.5044389963150024,,,,,,,,,,,,
,,2503,,7,,,,,,,0.9175693392753601,nan,0.9136000275611877,0.5863372087478638,0.5510908365249634,,,,,,,
1.4429868980597862e-06,1.4429868980597862e-06,2504,,,,,,,,,,,,,,,,,,,,
,,2549,1.6490027904510498,8,,,,,,,,,,,,,,,,,,
,,2599,0.3127855062484741,8,,,,,,,,,,,,,,,,,,
,,2649,0.3837489187717438,8,,,,,,,,,,,,,,,,,,
,,2699,0.23930341005325317,8,,,,,,,,,,,,,,,,,,
,,2749,1.2635314464569092,8,,,,,,,,,,,,,,,,,,
,,2799,4.362287998199463,8,,,,,,,,,,,,,,,,,,
,,2816,,8,0.30626165866851807,0.8747197985649109,nan,0.9259999990463257,0.48105740547180176,0.48898106813430786,,,,,,,,,,,,
,,2816,,8,,,,,,,0.9390902519226074,nan,0.9236000180244446,0.6211108565330505,0.5875428915023804,,,,,,,
1.4429868980597862e-06,1.4429868980597862e-06,2817,,,,,,,,,,,,,,,,,,,,
,,2849,0.6489710211753845,9,,,,,,,,,,,,,,,,,,
,,2899,0.8224015831947327,9,,,,,,,,,,,,,,,,,,
,,2949,0.20084010064601898,9,,,,,,,,,,,,,,,,,,
,,2999,0.20844702422618866,9,,,,,,,,,,,,,,,,,,
,,3049,0.7958468794822693,9,,,,,,,,,,,,,,,,,,
,,3099,0.4442768394947052,9,,,,,,,,,,,,,,,,,,
,,3129,,9,0.2896771728992462,0.8999044299125671,nan,0.9279999732971191,0.5001673698425293,0.5058156251907349,,,,,,,,,,,,
,,3129,,9,,,,,,,0.929782509803772,nan,0.9251999855041504,0.612676203250885,0.5817452669143677,,,,,,,
1.4429868980597862e-06,1.4429868980597862e-06,3130,,,,,,,,,,,,,,,,,,,,
,,3149,0.7310787439346313,10,,,,,,,,,,,,,,,,,,
,,3199,0.3217158317565918,10,,,,,,,,,,,,,,,,,,
,,3249,1.9438233375549316,10,,,,,,,,,,,,,,,,,,
,,3299,0.24590839445590973,10,,,,,,,,,,,,,,,,,,
,,3349,1.1236252784729004,10,,,,,,,,,,,,,,,,,,
,,3399,0.23063577711582184,10,,,,,,,,,,,,,,,,,,
,,3442,,10,0.3136082589626312,0.8943015933036804,nan,0.9240000247955322,0.5176675915718079,0.5148089528083801,,,,,,,,,,,,
,,3442,,10,,,,,,,0.9149233102798462,nan,0.9232000112533569,0.5834246873855591,0.5630049109458923,,,,,,,
1.4429868980597862e-06,1.4429868980597862e-06,3443,,,,,,,,,,,,,,,,,,,,
,,3449,0.8820348978042603,11,,,,,,,,,,,,,,,,,,
,,3499,0.13554036617279053,11,,,,,,,,,,,,,,,,,,
,,3549,1.4611831903457642,11,,,,,,,,,,,,,,,,,,
,,3599,0.3410942554473877,11,,,,,,,,,,,,,,,,,,
,,3649,0.16589318215847015,11,,,,,,,,,,,,,,,,,,
,,3699,1.0615438222885132,11,,,,,,,,,,,,,,,,,,
,,3749,0.10367435216903687,11,,,,,,,,,,,,,,,,,,
,,3755,,11,0.31803786754608154,0.90081787109375,nan,0.921999990940094,0.5259339809417725,0.5201221108436584,,,,,,,,,,,,
,,3755,,11,,,,,,,0.9048740267753601,nan,0.9283999800682068,0.6118340492248535,0.5796641111373901,,,,,,,
1.4429868980597863e-07,1.4429868980597863e-07,3756,,,,,,,,,,,,,,,,,,,,
,,3799,0.27451658248901367,12,,,,,,,,,,,,,,,,,,
,,3849,0.5256636738777161,12,,,,,,,,,,,,,,,,,,
,,3899,0.37732458114624023,12,,,,,,,,,,,,,,,,,,
,,3949,0.21940968930721283,12,,,,,,,,,,,,,,,,,,
,,3999,3.1084144115448,12,,,,,,,,,,,,,,,,,,
,,4049,0.41650089621543884,12,,,,,,,,,,,,,,,,,,
,,4068,,12,0.3129957616329193,0.8901132941246033,nan,0.9240000247955322,0.5176675915718079,0.5148089528083801,,,,,,,,,,,,
,,4068,,12,,,,,,,0.9027690887451172,nan,0.9211999773979187,0.6070094108581543,0.5726180076599121,,,,,,,
1.4429868980597863e-07,1.4429868980597863e-07,4069,,,,,,,,,,,,,,,,,,,,
,,4099,0.1496913582086563,13,,,,,,,,,,,,,,,,,,
,,4149,0.658925473690033,13,,,,,,,,,,,,,,,,,,
,,4199,0.2482789307832718,13,,,,,,,,,,,,,,,,,,
,,4249,0.1887832134962082,13,,,,,,,,,,,,,,,,,,
,,4299,0.2871721386909485,13,,,,,,,,,,,,,,,,,,
,,4349,0.2572711408138275,13,,,,,,,,,,,,,,,,,,
,,4381,,13,0.2970413267612457,0.9017782211303711,nan,0.9240000247955322,0.5176675915718079,0.5148089528083801,,,,,,,,,,,,
,,4381,,13,,,,,,,0.9266258478164673,nan,0.9228000044822693,0.6149104833602905,0.5825404524803162,,,,,,,
1.4429868980597863e-07,1.4429868980597863e-07,4382,,,,,,,,,,,,,,,,,,,,
,,4399,0.32422202825546265,14,,,,,,,,,,,,,,,,,,
,,4449,0.16019384562969208,14,,,,,,,,,,,,,,,,,,
,,4499,0.32581374049186707,14,,,,,,,,,,,,,,,,,,
,,4549,0.35116302967071533,14,,,,,,,,,,,,,,,,,,
,,4599,0.2580123841762543,14,,,,,,,,,,,,,,,,,,
,,4649,0.4528816342353821,14,,,,,,,,,,,,,,,,,,
,,4694,,14,0.3001065254211426,0.919393002986908,nan,0.921999990940094,0.5160926580429077,0.5105036497116089,,,,,,,,,,,,
,,4694,,14,,,,,,,0.9374598860740662,nan,0.91839998960495,0.601253867149353,0.5650917887687683,,,,,,,
1.4429868980597863e-07,1.4429868980597863e-07,4695,,,,,,,,,,,,,,,,,,,,
,,4699,0.45635005831718445,15,,,,,,,,,,,,,,,,,,
,,4749,0.3159524202346802,15,,,,,,,,,,,,,,,,,,
,,4799,0.4633373022079468,15,,,,,,,,,,,,,,,,,,
,,4849,0.811395525932312,15,,,,,,,,,,,,,,,,,,
,,4899,0.7557551860809326,15,,,,,,,,,,,,,,,,,,
,,4949,0.3298920691013336,15,,,,,,,,,,,,,,,,,,
,,4999,0.610946774482727,15,,,,,,,,,,,,,,,,,,
,,5007,,15,0.2963193356990814,0.9196681380271912,nan,0.9300000071525574,0.5197223424911499,0.5254631042480469,,,,,,,,,,,,
,,5007,,15,,,,,,,0.9209905862808228,nan,0.9228000044822693,0.6035069227218628,0.5730269551277161,,,,,,,
1.4429868980597864e-08,1.4429868980597864e-08,5008,,,,,,,,,,,,,,,,,,,,
,,5049,1.1033073663711548,16,,,,,,,,,,,,,,,,,,
,,5099,0.3116656243801117,16,,,,,,,,,,,,,,,,,,
,,5149,0.6783299446105957,16,,,,,,,,,,,,,,,,,,
,,5199,0.30702129006385803,16,,,,,,,,,,,,,,,,,,
,,5249,0.29512932896614075,16,,,,,,,,,,,,,,,,,,
,,5299,0.9509530067443848,16,,,,,,,,,,,,,,,,,,
,,5320,,16,0.32217976450920105,0.885440468788147,nan,0.9240000247955322,0.5176675915718079,0.514626145362854,,,,,,,,,,,,
,,5320,,16,,,,,,,0.9124898314476013,nan,0.9232000112533569,0.6019981503486633,0.5720298290252686,,,,,,,
,,5321,,17,,,,,,,,,,,,0.47220471501350403,0.8432510495185852,nan,0.9020000100135803,0.5517529249191284,0.5186462998390198,0.5517529249191284
