lr-Adam/pg1,lr-Adam/pg2,step,train/loss,epoch,val/loss,val/auroc,val/av_prec,val/acc,val/w_acc,val/av_f1,train/auroc,train/av_prec,train/acc,train/w_acc,train/av_f1,test/loss,test/auroc,test/av_prec,test/acc,test/w_acc,test/av_f1,test/bacc
0.0001442986898059786,0.0001442986898059786,0,,,,,,,,,,,,,,,,,,,,
,,49,0.99546217918396,0,,,,,,,,,,,,,,,,,,
,,99,0.5040310025215149,0,,,,,,,,,,,,,,,,,,
,,149,0.9748150706291199,0,,,,,,,,,,,,,,,,,,
,,199,0.7798221111297607,0,,,,,,,,,,,,,,,,,,
,,249,1.3632014989852905,0,,,,,,,,,,,,,,,,,,
,,281,,0,0.36094361543655396,0.9014614224433899,nan,0.9319999814033508,0.5019822120666504,0.5275904536247253,,,,,,,,,,,,
,,281,,0,,,,,,,0.754788875579834,0.4318423867225647,0.8057777881622314,0.4441942572593689,0.434567391872406,,,,,,,
0.0001442986898059786,0.0001442986898059786,282,,,,,,,,,,,,,,,,,,,,
,,299,0.41691187024116516,1,,,,,,,,,,,,,,,,,,
,,349,1.1675653457641602,1,,,,,,,,,,,,,,,,,,
,,399,1.478737473487854,1,,,,,,,,,,,,,,,,,,
,,449,0.9200204014778137,1,,,,,,,,,,,,,,,,,,
,,499,0.44158077239990234,1,,,,,,,,,,,,,,,,,,
,,549,0.3425787687301636,1,,,,,,,,,,,,,,,,,,
,,563,,1,0.32272103428840637,0.9060227274894714,nan,0.8999999761581421,0.512169599533081,0.5090471506118774,,,,,,,,,,,,
,,563,,1,,,,,,,0.8269502520561218,nan,0.8257777690887451,0.49591904878616333,0.47656774520874023,,,,,,,
0.0001442986898059786,0.0001442986898059786,564,,,,,,,,,,,,,,,,,,,,
,,599,2.0691075325012207,2,,,,,,,,,,,,,,,,,,
,,649,0.4588963985443115,2,,,,,,,,,,,,,,,,,,
,,699,0.4845825731754303,2,,,,,,,,,,,,,,,,,,
,,749,0.8715742230415344,2,,,,,,,,,,,,,,,,,,
,,799,0.8132715821266174,2,,,,,,,,,,,,,,,,,,
,,845,,2,0.26967111229896545,0.9432055354118347,nan,0.921999990940094,0.5327376127243042,0.5268530249595642,,,,,,,,,,,,
,,845,,2,,,,,,,0.8703137636184692,0.5146231651306152,0.8573333621025085,0.5426052212715149,0.5186919569969177,,,,,,,
0.0001442986898059786,0.0001442986898059786,846,,,,,,,,,,,,,,,,,,,,
,,849,0.5955397486686707,3,,,,,,,,,,,,,,,,,,
,,899,2.078242778778076,3,,,,,,,,,,,,,,,,,,
,,949,0.3385486900806427,3,,,,,,,,,,,,,,,,,,
,,999,0.5204149484634399,3,,,,,,,,,,,,,,,,,,
,,1049,0.9439491629600525,3,,,,,,,,,,,,,,,,,,
,,1099,0.30071553587913513,3,,,,,,,,,,,,,,,,,,
,,1127,,3,0.26803717017173767,0.9208925366401672,nan,0.9359999895095825,0.5033521056175232,0.5302469730377197,,,,,,,,,,,,
,,1127,,3,,,,,,,0.8562857508659363,nan,0.862666666507721,0.5435283184051514,0.5223236083984375,,,,,,,
1.442986898059786e-05,1.442986898059786e-05,1128,,,,,,,,,,,,,,,,,,,,
,,1149,0.20148234069347382,4,,,,,,,,,,,,,,,,,,
,,1199,0.3350990116596222,4,,,,,,,,,,,,,,,,,,
,,1249,1.2390434741973877,4,,,,,,,,,,,,,,,,,,
,,1299,0.15749621391296387,4,,,,,,,,,,,,,,,,,,
,,1349,0.5335984826087952,4,,,,,,,,,,,,,,,,,,
,,1399,0.5400674939155579,4,,,,,,,,,,,,,,,,,,
,,1409,,4,0.2696062922477722,0.9425918459892273,nan,0.9359999895095825,0.5213321447372437,0.5408409833908081,,,,,,,,,,,,
,,1409,,4,,,,,,,0.8955188989639282,nan,0.8702222108840942,0.5716283321380615,0.5429396033287048,,,,,,,
1.442986898059786e-05,1.442986898059786e-05,1410,,,,,,,,,,,,,,,,,,,,
,,1449,0.5419623851776123,5,,,,,,,,,,,,,,,,,,
,,1499,0.7286847829818726,5,,,,,,,,,,,,,,,,,,
,,1549,0.39186668395996094,5,,,,,,,,,,,,,,,,,,
,,1599,2.965808868408203,5,,,,,,,,,,,,,,,,,,
,,1649,0.2535918056964874,5,,,,,,,,,,,,,,,,,,
,,1691,,5,0.29105016589164734,0.8966979384422302,nan,0.9340000152587891,0.5215372443199158,0.5416176915168762,,,,,,,,,,,,
,,1691,,5,,,,,,,0.9107419848442078,0.6853080987930298,0.8893333077430725,0.6082620024681091,0.5958650708198547,,,,,,,
1.442986898059786e-05,1.442986898059786e-05,1692,,,,,,,,,,,,,,,,,,,,
,,1699,0.29760482907295227,6,,,,,,,,,,,,,,,,,,
,,1749,0.5506505966186523,6,,,,,,,,,,,,,,,,,,
,,1799,0.33585989475250244,6,,,,,,,,,,,,,,,,,,
,,1849,0.27003464102745056,6,,,,,,,,,,,,,,,,,,
,,1899,0.810377836227417,6,,,,,,,,,,,,,,,,,,
,,1949,0.5124849081039429,6,,,,,,,,,,,,,,,,,,
,,1973,,6,0.2624821364879608,0.9467684030532837,nan,0.9359999895095825,0.5222221612930298,0.5354137420654297,,,,,,,,,,,,
,,1973,,6,,,,,,,0.9258915781974792,0.6968584060668945,0.8955555558204651,0.6247311234474182,0.6102492809295654,,,,,,,
1.442986898059786e-05,1.442986898059786e-05,1974,,,,,,,,,,,,,,,,,,,,
,,1999,0.22386234998703003,7,,,,,,,,,,,,,,,,,,
,,2049,0.30223917961120605,7,,,,,,,,,,,,,,,,,,
,,2099,0.4351065158843994,7,,,,,,,,,,,,,,,,,,
,,2149,0.6343877911567688,7,,,,,,,,,,,,,,,,,,
,,2199,0.618570864200592,7,,,,,,,,,,,,,,,,,,
,,2249,0.5076385736465454,7,,,,,,,,,,,,,,,,,,
,,2255,,7,0.26798075437545776,0.9478138089179993,nan,0.9359999895095825,0.5406472086906433,0.5574914216995239,,,,,,,,,,,,
,,2255,,7,,,,,,,0.9012612700462341,0.5746506452560425,0.8866666555404663,0.5828194618225098,0.5632661581039429,,,,,,,
1.4429868980597862e-06,1.4429868980597862e-06,2256,,,,,,,,,,,,,,,,,,,,
,,2299,0.7985299825668335,8,,,,,,,,,,,,,,,,,,
,,2349,0.5897909998893738,8,,,,,,,,,,,,,,,,,,
,,2399,0.34173309803009033,8,,,,,,,,,,,,,,,,,,
,,2449,0.19318968057632446,8,,,,,,,,,,,,,,,,,,
,,2499,2.5105090141296387,8,,,,,,,,,,,,,,,,,,
,,2537,,8,0.2723696827888489,0.9488911628723145,nan,0.9340000152587891,0.5399622917175293,0.5478674173355103,,,,,,,,,,,,
,,2537,,8,,,,,,,0.9306349754333496,0.622593343257904,0.8884444236755371,0.6124626398086548,0.5914273858070374,,,,,,,
1.4429868980597862e-06,1.4429868980597862e-06,2538,,,,,,,,,,,,,,,,,,,,
,,2549,0.13631533086299896,9,,,,,,,,,,,,,,,,,,
,,2599,0.6158705353736877,9,,,,,,,,,,,,,,,,,,
,,2649,1.9245235919952393,9,,,,,,,,,,,,,,,,,,
,,2699,0.3210938572883606,9,,,,,,,,,,,,,,,,,,
,,2749,1.7782330513000488,9,,,,,,,,,,,,,,,,,,
,,2799,0.8192808032035828,9,,,,,,,,,,,,,,,,,,
,,2819,,9,0.2748893201351166,0.9362165331840515,nan,0.9300000071525574,0.5192773342132568,0.5278225541114807,,,,,,,,,,,,
,,2819,,9,,,,,,,0.9266649484634399,0.690915584564209,0.8928889036178589,0.6527204513549805,0.6398731470108032,,,,,,,
1.4429868980597862e-06,1.4429868980597862e-06,2820,,,,,,,,,,,,,,,,,,,,
,,2849,0.7689788937568665,10,,,,,,,,,,,,,,,,,,
,,2899,0.17847466468811035,10,,,,,,,,,,,,,,,,,,
,,2949,0.3524017930030823,10,,,,,,,,,,,,,,,,,,
,,2999,1.3114259243011475,10,,,,,,,,,,,,,,,,,,
,,3049,0.5800182223320007,10,,,,,,,,,,,,,,,,,,
,,3099,0.86639803647995,10,,,,,,,,,,,,,,,,,,
,,3101,,10,0.2628903388977051,0.9282493591308594,nan,0.9380000233650208,0.5233520865440369,0.5424611568450928,,,,,,,,,,,,
,,3101,,10,,,,,,,0.94334477186203,0.7168364524841309,0.8999999761581421,0.629109263420105,0.6122300028800964,,,,,,,
1.4429868980597862e-06,1.4429868980597862e-06,3102,,,,,,,,,,,,,,,,,,,,
,,3149,1.307212233543396,11,,,,,,,,,,,,,,,,,,
,,3199,0.6136869788169861,11,,,,,,,,,,,,,,,,,,
,,3249,0.4011155068874359,11,,,,,,,,,,,,,,,,,,
,,3299,1.3540159463882446,11,,,,,,,,,,,,,,,,,,
,,3349,0.29653769731521606,11,,,,,,,,,,,,,,,,,,
,,3383,,11,0.2692112326622009,0.9399394989013672,nan,0.9319999814033508,0.5204073190689087,0.5303107500076294,,,,,,,,,,,,
,,3383,,11,,,,,,,0.9312469363212585,0.6252273321151733,0.8928889036178589,0.6297228932380676,0.6113036274909973,,,,,,,
1.4429868980597863e-07,1.4429868980597863e-07,3384,,,,,,,,,,,,,,,,,,,,
,,3399,0.5326296091079712,12,,,,,,,,,,,,,,,,,,
,,3449,0.2825298011302948,12,,,,,,,,,,,,,,,,,,
,,3499,0.5305430293083191,12,,,,,,,,,,,,,,,,,,
,,3549,0.695133626461029,12,,,,,,,,,,,,,,,,,,
,,3599,0.5811417698860168,12,,,,,,,,,,,,,,,,,,
,,3649,0.369950532913208,12,,,,,,,,,,,,,,,,,,
,,3665,,12,0.2649294137954712,0.9495460391044617,nan,0.9380000233650208,0.5229071378707886,0.5404362678527832,,,,,,,,,,,,
,,3665,,12,,,,,,,0.9400503039360046,0.6027511358261108,0.8924444317817688,0.6104159355163574,0.5791260004043579,,,,,,,
1.4429868980597863e-07,1.4429868980597863e-07,3666,,,,,,,,,,,,,,,,,,,,
,,3699,0.20224310457706451,13,,,,,,,,,,,,,,,,,,
,,3749,0.2700442671775818,13,,,,,,,,,,,,,,,,,,
,,3799,0.23702472448349,13,,,,,,,,,,,,,,,,,,
,,3849,1.7323672771453857,13,,,,,,,,,,,,,,,,,,
,,3899,0.22371868789196014,13,,,,,,,,,,,,,,,,,,
,,3947,,13,0.2631176710128784,0.9497825503349304,nan,0.9340000152587891,0.5206472277641296,0.5350843667984009,,,,,,,,,,,,
,,3947,,13,,,,,,,0.9344179034233093,0.5933184623718262,0.8964444398880005,0.6173529028892517,0.5838990211486816,,,,,,,
1.4429868980597863e-07,1.4429868980597863e-07,3948,,,,,,,,,,,,,,,,,,,,
,,3949,0.8126006126403809,14,,,,,,,,,,,,,,,,,,
,,3999,0.2598164975643158,14,,,,,,,,,,,,,,,,,,
,,4049,0.21876463294029236,14,,,,,,,,,,,,,,,,,,
,,4099,1.7947200536727905,14,,,,,,,,,,,,,,,,,,
,,4149,0.4294010102748871,14,,,,,,,,,,,,,,,,,,
,,4199,1.1277825832366943,14,,,,,,,,,,,,,,,,,,
,,4229,,14,0.26332229375839233,0.9501973986625671,nan,0.9359999895095825,0.5213321447372437,0.5374435186386108,,,,,,,,,,,,
,,4229,,14,,,,,,,0.9278440475463867,0.6438701152801514,0.8946666717529297,0.6250954866409302,0.6188690066337585,,,,,,,
1.4429868980597863e-07,1.4429868980597863e-07,4230,,,,,,,,,,,,,,,,,,,,
,,4249,0.22078923881053925,15,,,,,,,,,,,,,,,,,,
,,4299,0.27145129442214966,15,,,,,,,,,,,,,,,,,,
,,4349,0.362400084733963,15,,,,,,,,,,,,,,,,,,
,,4399,0.2949795722961426,15,,,,,,,,,,,,,,,,,,
,,4449,1.806349754333496,15,,,,,,,,,,,,,,,,,,
,,4499,1.1542596817016602,15,,,,,,,,,,,,,,,,,,
,,4511,,15,0.27049869298934937,0.951216995716095,nan,0.9340000152587891,0.5206472277641296,0.5350843667984009,,,,,,,,,,,,
,,4511,,15,,,,,,,0.9330989122390747,0.6812242269515991,0.9035555720329285,0.6290053725242615,0.6287354826927185,,,,,,,
1.4429868980597864e-08,1.4429868980597864e-08,4512,,,,,,,,,,,,,,,,,,,,
,,4549,0.7365497946739197,16,,,,,,,,,,,,,,,,,,
,,4599,0.25761380791664124,16,,,,,,,,,,,,,,,,,,
,,4649,0.4302198588848114,16,,,,,,,,,,,,,,,,,,
,,4699,2.296177387237549,16,,,,,,,,,,,,,,,,,,
,,4749,0.5026583671569824,16,,,,,,,,,,,,,,,,,,
,,4793,,16,0.2558128833770752,0.9506863951683044,nan,0.9340000152587891,0.5206472277641296,0.5350843667984009,,,,,,,,,,,,
,,4793,,16,,,,,,,0.9393181204795837,0.6719794273376465,0.8995555639266968,0.6288580894470215,0.6205798387527466,,,,,,,
,,4794,,17,,,,,,,,,,,,0.2600402235984802,0.9121120572090149,0.5873836278915405,0.9440000057220459,0.5358741283416748,0.5522969365119934,0.5358741283416748
